# Simple level density calculation from lvl2.py
# Z_X/Z =  1.0000000E+00 at beta=0
#       beta                E        ln(rho)       dln(rho)              S             dS              C             dC
    0.062500   1.18632740E+02   6.248652E+01   1.663846E-03   6.623878E+01   1.614685E-03   1.129141E+00   9.066260E-04
    0.125000   1.01347050E+02   6.090871E+01   5.069379E-03   6.461824E+01   5.014739E-03   4.146713E+00   6.156099E-03
    0.187500   8.58192800E+01   5.855051E+01   9.474759E-03   6.219203E+01   9.407425E-03   8.143384E+00   1.836456E-02
    0.250000   7.26970400E+01   5.576895E+01   1.466012E-02   5.932154E+01   1.457325E-02   1.211818E+01   3.862305E-02
    0.312500   6.17770100E+01   5.279696E+01   2.036715E-02   5.625028E+01   2.024717E-02   1.552514E+01   6.854089E-02
    0.375000   5.29732000E+01   4.987945E+01   2.685127E-02   5.322397E+01   2.668469E-02   1.798443E+01   1.074114E-01
    0.437500   4.58793300E+01   4.710570E+01   3.319965E-02   5.034209E+01   3.295074E-02   1.971832E+01   1.600237E-01
    0.500000   4.01621200E+01   4.453174E+01   4.106652E-02   4.766215E+01   4.071044E-02   2.083491E+01   2.248578E-01
    0.562500   3.55220400E+01   4.216781E+01   5.018647E-02   4.519710E+01   4.967263E-02   2.154155E+01   3.086121E-01
    0.625000   3.16964900E+01   3.998945E+01   6.031983E-02   4.292568E+01   5.960605E-02   2.207776E+01   4.085275E-01
    0.687500   2.84844900E+01   3.792937E+01   7.004368E-02   4.081781E+01   6.922114E-02   2.427896E+01   5.197082E-01
    0.750000   2.52756900E+01   3.566045E+01   7.812588E-02   3.851148E+01   7.718781E-02   2.681117E+01   6.472444E-01
    0.812500   2.25355700E+01   3.363243E+01   8.792069E-02   3.637076E+01   8.654649E-02   2.511639E+01   7.778015E-01
    0.875000   2.05346900E+01   3.203444E+01   9.730672E-02   3.468252E+01   9.548165E-02   2.431796E+01   9.122994E-01
    0.937500   1.85654200E+01   3.028641E+01   1.031197E-01   3.289787E+01   1.010901E-01   2.594475E+01   1.056363E+00
    1.000000   1.68431200E+01   2.861702E+01   1.088854E-01   3.122939E+01   1.070167E-01   2.957338E+01   1.188046E+00
    1.062500   1.48702900E+01   2.664585E+01   1.147262E-01   2.919491E+01   1.124860E-01   2.941457E+01   1.327244E+00
    1.125000   1.35806500E+01   2.536248E+01   1.210725E-01   2.778437E+01   1.175388E-01   2.557105E+01   1.485033E+00
    1.187500   1.23446400E+01   2.399968E+01   1.289804E-01   2.635523E+01   1.248565E-01   2.495141E+01   1.614568E+00
    1.250000   1.13664800E+01   2.285624E+01   1.317647E-01   2.516310E+01   1.268976E-01   2.508135E+01   1.779849E+00
    1.312500   1.03390200E+01   2.156160E+01   1.359998E-01   2.384667E+01   1.309338E-01   2.647299E+01   1.946997E+00
    1.375000   9.44568000E+00   2.042703E+01   1.456297E-01   2.264624E+01   1.398624E-01   2.546864E+01   2.066891E+00
    1.437500   8.65422000E+00   1.932812E+01   1.456941E-01   2.153325E+01   1.393641E-01   2.706354E+01   2.299241E+00
    1.500000   7.80921000E+00   1.814478E+01   1.504188E-01   2.029214E+01   1.474008E-01   2.625273E+01   1.574150E+00
    1.625000   6.44308000E+00   1.616809E+01   1.584252E-01   1.815756E+01   1.551713E-01   2.246794E+01   1.435439E+00
    1.750000   5.67967000E+00   1.500190E+01   1.748057E-01   1.686931E+01   1.700264E-01   2.041289E+01   1.657377E+00
    1.875000   4.77493000E+00   1.339229E+01   1.920059E-01   1.522947E+01   1.857762E-01   2.205831E+01   2.140215E+00
    2.000000   4.13409000E+00   1.227008E+01   2.500541E-01   1.398784E+01   2.434769E-01   1.976528E+01   2.252222E+00
    2.125000   3.54009000E+00   1.110473E+01   2.309782E-01   1.276271E+01   2.192528E-01   1.979888E+01   2.877082E+00
    2.250000   3.03344000E+00   9.994348E+00   2.493853E-01   1.165442E+01   2.399294E-01   2.228963E+01   3.032347E+00
    2.375000   2.43689000E+00   8.750838E+00   2.805998E-01   1.027490E+01   2.653008E-01   1.892024E+01   3.458164E+00
    2.500000   2.20202000E+00   8.273070E+00   3.046332E-01   9.702400E+00   2.827830E-01   1.734603E+01   3.930350E+00
    2.625000   1.74182000E+00   7.015765E+00   3.147451E-01   8.523137E+00   2.979412E-01   2.235452E+01   4.536491E+00
    2.750000   1.39418000E+00   6.176294E+00   3.596523E-01   7.588855E+00   3.367818E-01   2.029646E+01   5.123042E+00
    2.875000   1.07194000E+00   5.520777E+00   4.289870E-01   6.682555E+00   3.703796E-01   1.343393E+01   5.815439E+00
    3.000000   9.91910000E-01   5.917521E+00   6.390593E-01   6.447467E+00   3.866122E-01   4.133977E+00   4.207144E+00
    3.250000   8.95010000E-01   5.707416E+00   5.260662E-01   6.144654E+00   4.117054E-01   4.030580E+00   2.639883E+00
    3.500000   8.00660000E-01   5.075651E+00   2.174581E-01   5.826223E+00   1.660373E-01   8.747714E+00   2.456826E+00
    3.750000   5.97550000E-01   4.624591E+00   2.303083E-01   5.089949E+00   1.772067E-01   5.676588E+00   1.670101E+00
    4.000000   5.94390000E-01   4.810419E+00   1.997866E-01   5.077704E+00   1.758484E-01   4.346110E+00   8.242502E-01
    5.000000   2.78680000E-01   3.499212E+00   2.740825E-01   3.657009E+00   2.654202E-01   5.455332E+00   7.458698E-01
    6.000000   1.62010000E-01   3.535278E+00   4.087399E-01   3.015324E+00   2.785784E-01   2.025333E+00   1.211565E+00
    7.000000   1.60500000E-01   3.888535E+00   6.645634E-01   3.005509E+00   3.274576E-01   1.333613E+00   1.542422E+00
    8.000000   1.07070000E-01   3.561022E+00   5.927341E-01   2.604784E+00   3.779425E-01   1.504605E+00   1.374037E+00
